* Measurement data measured by REW V5.31
* Source: Headset (CX31993 HIFI AUDIO), MICROPHONE (Master Volume), R, volume: 0.600
* Format: 256k Log Swept Sine, 1 sweep at -12.0 dBFS with no timing reference
* Dated: Nov 17, 2024 12:06:22 PM
* REW Settings:
*  C-weighting compensation: Off
*  Target level: 75.0 dB
* Note: ; 
* Measurement: FatFreq x HBB Deuce L
* Smoothing: 1/24 octave
* Frequency Step: 96 ppo
* Start Frequency: 20.141602 Hz
*
* Freq(Hz) SPL(dB) Phase(degrees)
20.141602 102.702 -170.2803
20.287556 102.702 -170.5438
20.434568 102.700 -170.9239
20.582645 102.694 -171.3488
20.731796 102.681 -171.7829
20.882027 102.664 -172.2064
21.033346 102.642 -172.6087
21.185763 102.617 -172.9845
21.339284 102.592 -173.3311
21.493917 102.569 -173.6498
21.649671 102.550 -173.9460
21.806553 102.535 -174.2265
21.964572 102.527 -174.5019
22.123737 102.525 -174.7833
22.284054 102.529 -175.0807
22.445534 102.539 -175.4043
22.608183 102.552 -175.7594
22.772012 102.567 -176.1496
22.937027 102.582 -176.5743
23.103238 102.595 -177.0287
23.270654 102.605 -177.5063
23.439282 102.609 -177.9968
23.609133 102.609 -178.4899
23.780215 102.602 -178.9749
23.952536 102.590 -179.4415
24.126106 102.574 -179.8829
24.300934 102.553 179.7058
24.477028 102.530 179.3254
24.654399 102.506 178.9733
24.833055 102.482 178.6436
25.013005 102.459 178.3272
25.194260 102.438 178.0147
25.376828 102.418 177.6953
25.560719 102.400 177.3609
25.745942 102.383 177.0052
25.932508 102.366 176.6262
26.120426 102.349 176.2254
26.309705 102.332 175.8077
26.500356 102.314 175.3812
26.692388 102.295 174.9540
26.885812 102.278 174.5349
27.080638 102.261 174.1294
27.276876 102.248 173.7408
27.474535 102.237 173.3689
27.673627 102.228 173.0109
27.874161 102.222 172.6628
28.076149 102.217 172.3209
28.279600 102.210 171.9831
28.484526 102.201 171.6500
28.690937 102.188 171.3240
28.898843 102.171 171.0083
29.108256 102.151 170.7045
29.319186 102.130 170.4100
29.531645 102.110 170.1176
29.745644 102.094 169.8134
29.961193 102.082 169.4822
30.178304 102.074 169.1074
30.396989 102.071 168.6796
30.617258 102.068 168.1979
30.839123 102.064 167.6748
31.062596 102.056 167.1322
31.287688 102.043 166.6021
31.514412 102.025 166.1150
31.742778 102.003 165.6968
31.972800 101.982 165.3599
32.204488 101.964 165.0999
32.437855 101.951 164.8953
32.672913 101.944 164.7134
32.909674 101.940 164.5190
33.148151 101.936 164.2812
33.388356 101.927 163.9839
33.630302 101.909 163.6259
33.874001 101.881 163.2209
34.119466 101.841 162.7897
34.366710 101.795 162.3542
34.615745 101.745 161.9318
34.866585 101.698 161.5290
35.119243 101.658 161.1429
35.373731 101.626 160.7631
35.630064 101.603 160.3779
35.888254 101.587 159.9792
36.148315 101.573 159.5658
36.410261 101.557 159.1448
36.674104 101.536 158.7292
36.939860 101.508 158.3351
37.207542 101.474 157.9788
37.477163 101.433 157.6710
37.748738 101.391 157.4146
38.022281 101.350 157.2012
38.297806 101.315 157.0096
38.575327 101.289 156.8094
38.854860 101.273 156.5676
39.136419 101.263 156.2562
39.420017 101.255 155.8624
39.705671 101.242 155.3956
39.993395 101.219 154.8841
40.283203 101.185 154.3682
40.575112 101.140 153.8885
40.869136 101.090 153.4711
41.165290 101.040 153.1187
41.463591 100.994 152.8137
41.764053 100.956 152.5263
42.066693 100.924 152.2292
42.371525 100.894 151.9113
42.678567 100.864 151.5804
42.987834 100.832 151.2553
43.299341 100.801 150.9527
43.613106 100.772 150.6765
43.929145 100.748 150.4131
44.247473 100.728 150.1385
44.568109 100.709 149.8324
44.891068 100.684 149.4902
45.216367 100.650 149.1252
45.544023 100.607 148.7603
45.874054 100.557 148.4161
46.206476 100.507 148.0988
46.541307 100.460 147.7972
46.878565 100.422 147.4903
47.218266 100.392 147.1607
47.560429 100.366 146.8069
47.905072 100.342 146.4440
48.252212 100.316 146.0944
48.601867 100.287 145.7736
48.954056 100.254 145.4822
49.308798 100.215 145.2073
49.666109 100.167 144.9320
50.026010 100.109 144.6463
50.388520 100.042 144.3504
50.753656 99.971 144.0486
51.121437 99.904 143.7396
51.491884 99.848 143.4117
51.865016 99.805 143.0492
52.240851 99.773 142.6468
52.619410 99.745 142.2186
53.000712 99.714 141.7953
53.384777 99.675 141.4075
53.771625 99.626 141.0699
54.161276 99.567 140.7757
54.553751 99.501 140.5052
54.949070 99.428 140.2416
55.347254 99.352 139.9798
55.748323 99.280 139.7217
56.152298 99.217 139.4645
56.559201 99.166 139.1938
56.969052 99.128 138.8893
57.381873 99.096 138.5389
57.797686 99.064 138.1494
58.216512 99.027 137.7439
58.638373 98.984 137.3481
59.063291 98.938 136.9777
59.491288 98.892 136.6332
59.922386 98.847 136.3060
60.356608 98.805 135.9888
60.793977 98.762 135.6846
61.234515 98.718 135.4067
61.678246 98.673 135.1699
62.125192 98.630 134.9794
62.575377 98.593 134.8226
63.028824 98.562 134.6721
63.485557 98.533 134.4980
63.945599 98.501 134.2836
64.408975 98.458 134.0325
64.875709 98.398 133.7670
65.345825 98.320 133.5175
65.819348 98.227 133.3125
66.296302 98.127 133.1699
66.776713 98.031 133.0868
67.260604 97.953 133.0297
67.748002 97.899 132.9361
68.238932 97.867 132.7404
68.733420 97.844 132.4129
69.231490 97.815 131.9832
69.733170 97.769 131.5233
70.238485 97.705 131.1024
70.747463 97.629 130.7491
71.260128 97.547 130.4468
71.776508 97.465 130.1591
72.296630 97.383 129.8551
72.820521 97.302 129.5181
73.348209 97.225 129.1454
73.879720 97.153 128.7524
74.415083 97.087 128.3745
74.954326 97.029 128.0541
75.497475 96.979 127.8228
76.044561 96.929 127.6908
76.595612 96.872 127.6438
77.150655 96.802 127.6368
77.709720 96.721 127.5964
78.272837 96.633 127.4556
78.840034 96.545 127.2050
79.411342 96.463 126.9044
79.986789 96.393 126.6296
80.566406 96.335 126.4053
81.150224 96.281 126.2027
81.738272 96.219 125.9925
82.330581 96.144 125.7806
82.927182 96.061 125.5923
83.528107 95.976 125.4392
84.133386 95.893 125.3105
84.743051 95.809 125.1855
85.357134 95.721 125.0510
85.975667 95.633 124.9067
86.598682 95.550 124.7578
87.226212 95.476 124.6043
87.858289 95.404 124.4453
88.494946 95.327 124.2849
89.136217 95.242 124.1238
89.782135 95.153 123.9564
90.432733 95.066 123.7893
91.088046 94.985 123.6472
91.748108 94.907 123.5440
92.412952 94.829 123.4655
93.082615 94.745 123.3863
93.757130 94.658 123.2843
94.436533 94.568 123.1512
95.120859 94.476 123.0101
95.810144 94.382 122.8979
96.504423 94.290 122.8105
97.203734 94.200 122.7039
97.908112 94.111 122.5658
98.617595 94.019 122.4399
99.332219 93.927 122.3685
100.052021 93.834 122.3559
100.777039 93.739 122.3813
101.507311 93.644 122.4004
102.242875 93.551 122.3575
102.983769 93.462 122.2420
103.730032 93.380 122.1163
104.481702 93.305 122.0677
105.238820 93.234 122.1562
106.001424 93.155 122.3902
106.769554 93.061 122.6990
107.543250 92.951 122.9487
108.322553 92.831 123.0361
109.107503 92.717 122.9744
109.898141 92.625 122.8751
110.694508 92.559 122.8503
111.496646 92.502 122.9333
112.304596 92.429 123.0707
113.118402 92.335 123.1666
113.938104 92.237 123.1780
114.763747 92.160 123.1662
115.595372 92.105 123.2036
116.433024 92.035 123.2947
117.276746 91.919 123.4019
118.126581 91.776 123.4316
118.982575 91.644 123.3140
119.844772 91.544 123.1934
120.713217 91.466 123.2903
121.587954 91.389 123.5832
122.469031 91.298 123.8737
123.356492 91.197 124.0601
124.250384 91.098 124.2002
125.150753 91.002 124.3839
126.057647 90.903 124.6113
126.971113 90.798 124.8118
127.891198 90.687 124.9662
128.817950 90.576 125.1289
129.751418 90.472 125.3432
130.691651 90.374 125.6140
131.638696 90.274 125.9463
132.592604 90.170 126.3430
133.553425 90.070 126.7722
134.521208 89.984 127.2010
135.496004 89.906 127.6321
136.477864 89.813 128.0782
137.466839 89.693 128.5350
138.462981 89.560 128.9575
139.466340 89.437 129.3126
140.476971 89.330 129.6691
141.494925 89.236 130.1479
142.520256 89.150 130.7681
143.553016 89.070 131.4368
144.593260 89.002 132.1088
145.641043 88.964 132.7780
146.696418 88.955 133.3659
147.759441 88.950 133.7880
148.830166 88.924 134.0622
149.908651 88.877 134.2879
150.994951 88.819 134.5444
152.089123 88.753 134.8520
153.191223 88.683 135.1884
154.301310 88.613 135.5450
155.419441 88.547 135.9511
156.545674 88.482 136.4082
157.680069 88.419 136.8978
158.822683 88.365 137.4092
159.973578 88.322 137.9179
161.132813 88.287 138.3915
162.300447 88.255 138.8194
163.476543 88.223 139.2169
164.661162 88.189 139.5887
165.854364 88.151 139.9285
167.056213 88.110 140.2512
168.266772 88.067 140.5854
169.486102 88.021 140.9517
170.714268 87.972 141.3473
171.951334 87.924 141.7466
173.197364 87.878 142.1308
174.452424 87.835 142.5037
175.716578 87.792 142.8859
176.989893 87.747 143.3015
178.272434 87.702 143.7421
179.564270 87.657 144.1817
180.865467 87.615 144.6121
182.176092 87.574 145.0375
183.496216 87.534 145.4626
184.825905 87.494 145.8929
186.165229 87.456 146.3267
187.514259 87.418 146.7662
188.873065 87.381 147.2101
190.241717 87.345 147.6485
191.620287 87.310 148.0867
193.008847 87.275 148.5357
194.407468 87.241 148.9885
195.816225 87.208 149.4489
197.235190 87.181 149.9330
198.664438 87.160 150.4334
200.104042 87.144 150.9050
201.554078 87.129 151.2999
203.014622 87.111 151.6440
204.485750 87.087 152.0108
205.967538 87.059 152.4399
207.460064 87.033 152.9159
208.963405 87.009 153.3929
210.477640 86.988 153.8539
212.002848 86.968 154.3132
213.539108 86.950 154.7755
215.086500 86.934 155.2299
216.645105 86.919 155.6761
218.215005 86.905 156.1213
219.796281 86.893 156.5632
221.389015 86.882 156.9935
222.993292 86.871 157.4053
224.609193 86.860 157.8090
226.236804 86.848 158.2123
227.876209 86.837 158.6093
229.527494 86.828 159.0034
231.190745 86.820 159.4030
232.866048 86.814 159.8077
234.553491 86.810 160.2170
236.253163 86.808 160.6348
237.965150 86.808 161.0638
239.689544 86.806 161.4795
241.426433 86.801 161.8377
243.175909 86.794 162.1559
244.938062 86.787 162.4779
246.712984 86.783 162.8126
248.500768 86.780 163.1599
250.301507 86.779 163.5168
252.115295 86.778 163.8744
253.942226 86.776 164.2249
255.782396 86.773 164.5717
257.635901 86.770 164.9174
259.502837 86.767 165.2627
261.383301 86.765 165.6060
263.277392 86.764 165.9432
265.185209 86.764 166.2689
267.106850 86.765 166.5893
269.042417 86.768 166.9190
270.992009 86.773 167.2571
272.955729 86.778 167.5916
274.933678 86.780 167.9116
276.925961 86.780 168.2180
278.932681 86.780 168.5200
280.953942 86.780 168.8220
282.989850 86.780 169.1254
285.040511 86.779 169.4330
287.106032 86.779 169.7445
289.186521 86.778 170.0582
291.282086 86.777 170.3690
293.392836 86.775 170.6712
295.518881 86.772 170.9681
297.660333 86.770 171.2631
299.817302 86.767 171.5603
301.989902 86.766 171.8701
304.178245 86.765 172.1889
306.382446 86.762 172.5094
308.602620 86.758 172.8376
310.838882 86.752 173.1807
313.091348 86.747 173.5388
315.360137 86.743 173.9143
317.645367 86.744 174.3153
319.947156 86.748 174.7469
322.265625 86.756 175.2046
324.600895 86.769 175.6748
326.953086 86.787 176.1550
329.322323 86.812 176.6475
331.708729 86.848 177.1245
334.112427 86.895 177.5373
336.533543 86.950 177.8702
338.972204 87.009 178.1321
341.428536 87.065 178.3207
343.902668 87.111 178.4339
346.394729 87.149 178.4910
348.904848 87.179 178.5164
351.433156 87.203 178.5378
353.979786 87.218 178.5736
356.544869 87.227 178.6301
359.128540 87.230 178.7032
361.730934 87.231 178.7863
364.352185 87.230 178.8796
366.992431 87.230 178.9824
369.651810 87.230 179.0939
372.330459 87.231 179.2214
375.028519 87.232 179.3686
377.746130 87.232 179.5235
380.483434 87.232 179.6768
383.240574 87.230 179.8320
386.017693 87.230 179.9940
388.814937 87.231 -179.8360
391.632450 87.233 -179.6535
394.470380 87.234 -179.4621
397.328875 87.234 -179.2723
400.208084 87.234 -179.0885
403.108157 87.234 -178.9077
406.029245 87.235 -178.7232
408.971500 87.237 -178.5330
411.935076 87.238 -178.3414
414.920127 87.238 -178.1515
417.926810 87.237 -177.9605
420.955280 87.238 -177.7664
424.005695 87.240 -177.5683
427.078215 87.242 -177.3706
430.173000 87.244 -177.1780
433.290211 87.246 -176.9900
436.430010 87.247 -176.8017
439.592562 87.248 -176.6071
442.778031 87.249 -176.4060
445.986583 87.250 -176.2064
449.218386 87.251 -176.0137
452.473607 87.253 -175.8232
455.752418 87.255 -175.6301
459.054987 87.257 -175.4344
462.381489 87.258 -175.2361
465.732096 87.260 -175.0377
469.106983 87.261 -174.8424
472.506325 87.263 -174.6539
475.930301 87.265 -174.4727
479.379088 87.266 -174.2923
482.852867 87.268 -174.1013
486.351817 87.270 -173.8994
489.876123 87.272 -173.6968
493.425968 87.274 -173.4993
497.001536 87.276 -173.3069
500.603014 87.277 -173.1181
504.230589 87.278 -172.9290
507.884452 87.279 -172.7348
511.564792 87.280 -172.5380
515.271802 87.281 -172.3435
519.005673 87.283 -172.1502
522.766602 87.284 -171.9551
526.554785 87.285 -171.7594
530.370418 87.285 -171.5637
534.213700 87.285 -171.3671
538.084833 87.285 -171.1682
541.984018 87.285 -170.9651
545.911457 87.284 -170.7598
549.867357 87.284 -170.5552
553.851922 87.284 -170.3524
557.865362 87.283 -170.1507
561.907884 87.283 -169.9473
565.979700 87.282 -169.7387
570.081022 87.281 -169.5247
574.212064 87.280 -169.3066
578.373042 87.279 -169.0853
582.564171 87.278 -168.8628
586.785671 87.277 -168.6398
591.037762 87.276 -168.4161
595.320665 87.274 -168.1917
599.634604 87.272 -167.9661
603.979804 87.272 -167.7391
608.356491 87.273 -167.5100
612.764893 87.274 -167.2781
617.205240 87.274 -167.0423
621.677763 87.274 -166.8012
626.182696 87.273 -166.5546
630.720274 87.273 -166.3040
635.290733 87.272 -166.0509
639.894312 87.271 -165.7962
644.531250 87.270 -165.5398
649.201789 87.270 -165.2804
653.906173 87.270 -165.0175
658.644647 87.270 -164.7518
663.417457 87.270 -164.4835
668.224854 87.270 -164.2121
673.067086 87.271 -163.9378
677.944408 87.272 -163.6602
682.857073 87.273 -163.3792
687.805336 87.275 -163.0947
692.789457 87.277 -162.8077
697.809695 87.279 -162.5195
702.866312 87.281 -162.2285
707.959571 87.284 -161.9321
713.089738 87.288 -161.6303
718.257080 87.292 -161.3236
723.461867 87.295 -161.0104
728.704370 87.299 -160.6923
733.984862 87.302 -160.3731
739.303619 87.307 -160.0541
744.660918 87.312 -159.7325
750.057038 87.318 -159.4048
755.492260 87.325 -159.0703
760.966869 87.333 -158.7314
766.481148 87.341 -158.3903
772.035387 87.349 -158.0478
777.629873 87.359 -157.7026
783.264900 87.369 -157.3529
788.940760 87.380 -156.9987
794.657750 87.392 -156.6414
800.416168 87.406 -156.2811
806.216313 87.420 -155.9169
812.058489 87.436 -155.5493
817.943000 87.453 -155.1798
823.870152 87.470 -154.8094
829.840255 87.489 -154.4385
835.853619 87.509 -154.0671
841.910559 87.529 -153.6972
848.011390 87.550 -153.3291
854.156430 87.572 -152.9601
860.346000 87.595 -152.5902
866.580422 87.619 -152.2213
872.860020 87.643 -151.8535
879.185124 87.669 -151.4844
885.556062 87.696 -151.1125
891.973166 87.724 -150.7381
898.436771 87.753 -150.3625
904.947215 87.783 -149.9881
911.504835 87.815 -149.6154
918.109975 87.847 -149.2449
924.762978 87.881 -148.8761
931.464192 87.916 -148.5083
938.213966 87.952 -148.1413
945.012651 87.990 -147.7758
951.860602 88.030 -147.4141
958.758176 88.072 -147.0584
965.705733 88.115 -146.7088
972.703635 88.159 -146.3646
979.752246 88.204 -146.0269
986.851935 88.250 -145.6976
994.003071 88.297 -145.3772
1001.206027 88.345 -145.0646
1008.461179 88.392 -144.7601
1015.768904 88.441 -144.4624
1023.129584 88.490 -144.1707
1030.543603 88.540 -143.8864
1038.011347 88.591 -143.6105
1045.533205 88.642 -143.3414
1053.109569 88.694 -143.0780
1060.740836 88.746 -142.8211
1068.427401 88.799 -142.5719
1076.169666 88.852 -142.3320
1083.968035 88.905 -142.1009
1091.822915 88.959 -141.8776
1099.734713 89.012 -141.6619
1107.703844 89.066 -141.4528
1115.730723 89.118 -141.2499
1123.815768 89.171 -141.0531
1131.959400 89.222 -140.8623
1140.162045 89.274 -140.6768
1148.424129 89.325 -140.4956
1156.746083 89.376 -140.3201
1165.128342 89.426 -140.1515
1173.571343 89.477 -139.9889
1182.075524 89.526 -139.8313
1190.641331 89.576 -139.6780
1199.269209 89.625 -139.5281
1207.959608 89.675 -139.3806
1216.712981 89.725 -139.2352
1225.529785 89.774 -139.0924
1234.410479 89.823 -138.9529
1243.355526 89.872 -138.8165
1252.365393 89.921 -138.6819
1261.440549 89.969 -138.5473
1270.581467 90.017 -138.4139
1279.788624 90.065 -138.2830
1289.062500 90.112 -138.1508
1298.403578 90.160 -138.0154
1307.812346 90.209 -137.8806
1317.289293 90.259 -137.7511
1326.834914 90.310 -137.6282
1336.449707 90.361 -137.5097
1346.134173 90.413 -137.3916
1355.888816 90.463 -137.2703
1365.714145 90.512 -137.1416
1375.610673 90.560 -137.0070
1385.578915 90.607 -136.8729
1395.619391 90.652 -136.7421
1405.732624 90.697 -136.6117
1415.919142 90.742 -136.4780
1426.179476 90.789 -136.3452
1436.514160 90.836 -136.2194
1446.923734 90.883 -136.1010
1457.408740 90.928 -135.9855
1467.969724 90.973 -135.8657
1478.607238 91.019 -135.7385
1489.321836 91.065 -135.6054
1500.114076 91.111 -135.4760
1510.984521 91.158 -135.3588
1521.933737 91.205 -135.2475
1532.962297 91.256 -135.1339
1544.070773 91.309 -135.0202
1555.259747 91.363 -134.9133
1566.529800 91.419 -134.8164
1577.881521 91.474 -134.7251
1589.315501 91.530 -134.6327
1600.832336 91.586 -134.5365
1612.432627 91.640 -134.4385
1624.116978 91.693 -134.3438
1635.886000 91.745 -134.2563
1647.740304 91.798 -134.1746
1659.680509 91.851 -134.0950
1671.707238 91.904 -134.0174
1683.821118 91.957 -133.9419
1696.022780 92.010 -133.8686
1708.312860 92.063 -133.7987
1720.692000 92.116 -133.7307
1733.160843 92.170 -133.6623
1745.720041 92.224 -133.5944
1758.370248 92.278 -133.5287
1771.112124 92.331 -133.4654
1783.946332 92.385 -133.4027
1796.873543 92.438 -133.3407
1809.894429 92.493 -133.2825
1823.009670 92.548 -133.2269
1836.219950 92.603 -133.1729
1849.525956 92.658 -133.1223
1862.928384 92.713 -133.0733
1876.427931 92.768 -133.0249
1890.025301 92.824 -132.9785
1903.721204 92.881 -132.9353
1917.516352 92.938 -132.8937
1931.411466 92.996 -132.8528
1945.407270 93.054 -132.8150
1959.504493 93.113 -132.7821
1973.703870 93.173 -132.7533
1988.006142 93.234 -132.7268
2002.412054 93.295 -132.7004
2016.922357 93.357 -132.6752
2031.537808 93.419 -132.6553
2046.259169 93.482 -132.6423
2061.087206 93.546 -132.6338
2076.022694 93.610 -132.6302
2091.066410 93.675 -132.6325
2106.219139 93.741 -132.6390
2121.481671 93.808 -132.6494
2136.854802 93.875 -132.6663
2152.339333 93.943 -132.6926
2167.936071 94.012 -132.7287
2183.645829 94.082 -132.7731
2199.469427 94.152 -132.8234
2215.407689 94.222 -132.8777
2231.461446 94.292 -132.9359
2247.631536 94.363 -132.9987
2263.918800 94.434 -133.0664
2280.324089 94.506 -133.1402
2296.848258 94.579 -133.2220
2313.492167 94.654 -133.3133
2330.256685 94.730 -133.4163
2347.142685 94.806 -133.5337
2364.151049 94.883 -133.6662
2381.282662 94.961 -133.8128
2398.538418 95.038 -133.9724
2415.919216 95.116 -134.1451
2433.425962 95.194 -134.3320
2451.059570 95.272 -134.5347
2468.820958 95.350 -134.7544
2486.711052 95.427 -134.9909
2504.730786 95.505 -135.2431
2522.881098 95.582 -135.5101
2541.162934 95.659 -135.7913
2559.577248 95.735 -136.0878
2578.125000 95.810 -136.4014
2596.807157 95.884 -136.7325
2615.624692 95.958 -137.0807
2634.578586 96.029 -137.4448
2653.669829 96.100 -137.8232
2672.899414 96.170 -138.2155
2692.268345 96.239 -138.6216
2711.777632 96.306 -139.0422
2731.428290 96.371 -139.4780
2751.221345 96.435 -139.9296
2771.157829 96.498 -140.3971
2791.238781 96.560 -140.8797
2811.465248 96.620 -141.3768
2831.838284 96.677 -141.8884
2852.358952 96.733 -142.4145
2873.028321 96.786 -142.9536
2893.847468 96.836 -143.5041
2914.817480 96.885 -144.0657
2935.939449 96.931 -144.6387
2957.214476 96.974 -145.2243
2978.643672 97.015 -145.8228
3000.228152 97.054 -146.4329
3021.969041 97.090 -147.0520
3043.867475 97.123 -147.6791
3065.924593 97.153 -148.3142
3088.141547 97.180 -148.9577
3110.519493 97.203 -149.6087
3133.059600 97.223 -150.2663
3155.763041 97.240 -150.9291
3178.631001 97.252 -151.5957
3201.664672 97.262 -152.2647
3224.865254 97.267 -152.9340
3248.233957 97.270 -153.6021
3271.771999 97.270 -154.2687
3295.480608 97.266 -154.9342
3319.361019 97.260 -155.5980
3343.414477 97.250 -156.2593
3367.642236 97.237 -156.9184
3392.045560 97.222 -157.5756
3416.625721 97.203 -158.2312
3441.383999 97.182 -158.8847
3466.321686 97.157 -159.5353
3491.440082 97.128 -160.1836
3516.740496 97.096 -160.8304
3542.224247 97.061 -161.4744
3567.892664 97.021 -162.1114
3593.747085 96.977 -162.7361
3619.788858 96.928 -163.3427
3646.019340 96.875 -163.9267
3672.439900 96.819 -164.4848
3699.051913 96.760 -165.0151
3725.856768 96.701 -165.5180
3752.855862 96.640 -165.9961
3780.050603 96.581 -166.4539
3807.442408 96.522 -166.8968
3835.032705 96.463 -167.3308
3862.822933 96.405 -167.7612
3890.814540 96.346 -168.1913
3919.008986 96.286 -168.6215
3947.407741 96.224 -169.0510
3976.012284 96.161 -169.4781
4004.824108 96.095 -169.9001
4033.844715 96.026 -170.3137
4063.075616 95.955 -170.7162
4092.518337 95.881 -171.1059
4122.174412 95.805 -171.4822
4152.045387 95.727 -171.8445
4182.132820 95.648 -172.1932
4212.438278 95.567 -172.5290
4242.963342 95.486 -172.8529
4273.709604 95.403 -173.1646
4304.678665 95.318 -173.4639
4335.872141 95.233 -173.7502
4367.291658 95.146 -174.0232
4398.938854 95.058 -174.2827
4430.815378 94.968 -174.5277
4462.922893 94.876 -174.7561
4495.263072 94.783 -174.9677
4527.837601 94.688 -175.1643
4560.648179 94.593 -175.3466
4593.696515 94.497 -175.5124
4626.984334 94.400 -175.6594
4660.513370 94.301 -175.7869
4694.285371 94.201 -175.8955
4728.302098 94.100 -175.9856
4762.565324 93.999 -176.0574
4797.076835 93.897 -176.1097
4831.838432 93.794 -176.1400
4866.851925 93.691 -176.1476
4902.119140 93.588 -176.1322
4937.641916 93.485 -176.0922
4973.422105 93.381 -176.0252
5009.461572 93.277 -175.9320
5045.762195 93.175 -175.8136
5082.325868 93.073 -175.6707
5119.154496 92.972 -175.5037
5156.250000 92.873 -175.3138
5193.614313 92.775 -175.1014
5231.249383 92.679 -174.8680
5269.157173 92.585 -174.6165
5307.339658 92.492 -174.3476
5345.798829 92.401 -174.0585
5384.536691 92.312 -173.7467
5423.555263 92.224 -173.4116
5462.856580 92.138 -173.0525
5502.442691 92.053 -172.6685
5542.315659 91.972 -172.2604
5582.477563 91.894 -171.8279
5622.930497 91.819 -171.3701
5663.676569 91.749 -170.8880
5704.717904 91.683 -170.3829
5746.056642 91.622 -169.8569
5787.694937 91.567 -169.3130
5829.634960 91.518 -168.7563
5871.878898 91.475 -168.1904
5914.428953 91.437 -167.6176
5957.287343 91.406 -167.0405
6000.456303 91.382 -166.4634
6043.938083 91.363 -165.8891
6087.734950 91.351 -165.3194
6131.849187 91.344 -164.7559
6176.283094 91.344 -164.2013
6221.038987 91.350 -163.6586
6266.119200 91.361 -163.1305
6311.526083 91.379 -162.6201
6357.262002 91.404 -162.1300
6403.329344 91.434 -161.6624
6449.730508 91.470 -161.2207
6496.467914 91.511 -160.8068
6543.543998 91.557 -160.4204
6590.961215 91.609 -160.0619
6638.722037 91.666 -159.7333
6686.828954 91.729 -159.4388
6735.284473 91.799 -159.1831
6784.091120 91.876 -158.9707
6833.251441 91.960 -158.8070
6882.767998 92.050 -158.7006
6932.643372 92.146 -158.6632
6982.880164 92.249 -158.7054
7033.480992 92.355 -158.8348
7084.448495 92.465 -159.0586
7135.785329 92.577 -159.3846
7187.494171 92.689 -159.8170
7239.577717 92.796 -160.3550
7292.038681 92.898 -160.9909
7344.879799 92.992 -161.7086
7398.103826 93.076 -162.4842
7451.713536 93.154 -163.2910
7505.711724 93.230 -164.1096
7560.101205 93.312 -164.9416
7614.884815 93.405 -165.8188
7670.065409 93.516 -166.8036
7725.645865 93.644 -167.9819
7781.629080 93.783 -169.4424
7838.017972 93.920 -171.2533
7894.815481 94.038 -173.4464
7952.024569 94.119 -176.0142
8009.648217 94.145 -178.9052
8067.689429 94.101 177.9748
8126.151233 93.979 174.7472
8185.036674 93.777 171.5406
8244.348824 93.497 168.4753
8304.090774 93.150 165.6498
8364.265639 92.746 163.1349
8424.876556 92.299 160.9728
8485.926684 91.821 159.1774
8547.419207 91.323 157.7427
8609.357330 90.815 156.6535
8671.744282 90.301 155.8898
8734.583316 89.790 155.4236
8797.877707 89.286 155.2211
8861.630756 88.793 155.2543
8925.845785 88.314 155.5018
8990.526143 87.848 155.9447
9055.675202 87.397 156.5657
9121.296357 86.961 157.3501
9187.393031 86.541 158.2838
9253.968668 86.138 159.3509
9321.026740 85.750 160.5375
9388.570742 85.380 161.8323
9456.604196 85.025 163.2251
9525.130648 84.688 164.7071
9594.153671 84.368 166.2697
9663.676863 84.065 167.9052
9733.703850 83.779 169.6060
9804.238280 83.509 171.3652
9875.283832 83.254 173.1767
9946.844210 83.016 175.0372
10018.923143 82.794 176.9426
10091.524390 82.587 178.8866
10164.651736 82.397 -179.1352
10238.308993 82.223 -177.1257
10312.500000 82.065 -175.0893
10387.228626 81.923 -173.0287
10462.498767 81.797 -170.9446
10538.314345 81.688 -168.8381
10614.679315 81.595 -166.7115
10691.597657 81.519 -164.5692
10769.073381 81.460 -162.4140
10847.110526 81.420 -160.2471
10925.713161 81.398 -158.0720
11004.885382 81.395 -155.8929
11084.631318 81.412 -153.7132
11164.955126 81.449 -151.5355
11245.860993 81.509 -149.3625
11327.353138 81.593 -147.1978
11409.435808 81.701 -145.0471
11492.113283 81.835 -142.9183
11575.389873 81.998 -140.8199
11659.269920 82.189 -138.7597
11743.757796 82.412 -136.7463
11828.857906 82.670 -134.7907
11914.574686 82.964 -132.9068
12000.912606 83.298 -131.1107
12087.876166 83.677 -129.4229
12175.469900 84.104 -127.8735
12263.698373 84.586 -126.5026
12352.566187 85.128 -125.3620
12442.077974 85.737 -124.5204
12532.238400 86.419 -124.0739
12623.052165 87.178 -124.1542
12714.524005 88.015 -124.9353
12806.658687 88.919 -126.6329
12899.461015 89.864 -129.4842
12992.935827 90.807 -133.7058
13087.087996 91.682 -139.4323
13181.922430 92.411 -146.6393
13277.444074 92.914 -155.0878
13373.657907 93.128 -164.3221
13470.568945 93.027 -173.7270
13568.182241 92.623 177.3422
13666.502883 91.968 169.4113
13765.535996 91.135 162.7950
13865.286744 90.200 157.5875
13965.760328 89.231 153.7115
14066.961984 88.280 150.9893
14168.896989 87.380 149.2053
14271.570658 86.551 148.1544
14374.988342 85.800 147.6644
14479.155433 85.131 147.5949
14584.077362 84.542 147.8329
14689.759598 84.033 148.2837
14796.207652 83.602 148.8550
14903.427072 83.250 149.4463
15011.423448 82.972 149.9476
15120.202410 82.762 150.2535
15229.769630 82.607 150.2795
15340.130819 82.493 149.9749
15451.291730 82.402 149.3257
15563.258160 82.324 148.3469
15676.035944 82.247 147.0667
15789.630962 82.167 145.5126
15904.049137 82.079 143.7066
16019.296433 81.979 141.6646
16135.378859 81.863 139.3995
16252.302465 81.728 136.9255
16370.073348 81.568 134.2610
16488.697648 81.380 131.4333
16608.181548 81.161 128.4795
16728.531278 80.910 125.4420
16849.753112 80.627 122.3617
16971.853368 80.315 119.2725
17094.838414 79.979 116.2018
17218.714660 79.624 113.1692
17343.488565 79.256 110.1857
17469.166632 78.880 107.2532
17595.755415 78.504 104.3636
17723.261512 78.135 101.4977
17851.691571 77.778 98.6242
17981.052287 77.439 95.7035
18111.350404 77.122 92.6890
18242.592715 76.830 89.5240
18374.786062 76.565 86.1432
18507.937336 76.324 82.4750
18642.053479 76.106 78.4474
18777.141484 75.903 73.9869
18913.208391 75.706 69.0179
19050.261296 75.503 63.4680
19188.307342 75.276 57.2764
19327.353727 75.003 50.4064
19467.407699 74.663 42.8671
19608.476560 74.247 34.7428
19750.567664 73.777 26.3000
19893.688419 73.342 18.3420
20037.846286 73.084 12.8877
