* Measurement data measured by REW V5.30.4
* Source: Headset (2- CX31993 HIFI AUDIO), MICROPHONE (Master Volume), L, volume: 0.500
* Format: 256k Log Swept Sine, 1 sweep at -12.0 dBFS with no timing reference
* Dated: 09 12, 24 1:30:33 PM
* REW Settings:
*  C-weighting compensation: Off
*  Target level: 75.0 dB
* Note: ; 
* Measurement: Thieaudio Oracle L
* Smoothing: 1/12 octave
* Frequency Step: 96 ppo
* Start Frequency: 20.141602 Hz
*
* Freq(Hz) SPL(dB) Phase(degrees)
20.141602 97.130 -157.2818
20.287556 97.129 -157.4385
20.434568 97.126 -157.6598
20.582645 97.123 -157.9192
20.731796 97.119 -158.1943
20.882027 97.116 -158.4694
21.033346 97.115 -158.7368
21.185762 97.116 -158.9956
21.339283 97.122 -159.2504
21.493916 97.132 -159.5097
21.649670 97.146 -159.7832
21.806553 97.162 -160.0800
21.964573 97.180 -160.4061
22.123737 97.196 -160.7628
22.284056 97.209 -161.1458
22.445536 97.216 -161.5452
22.608185 97.216 -161.9471
22.772013 97.209 -162.3353
22.937029 97.197 -162.6944
23.103241 97.182 -163.0128
23.270657 97.167 -163.2857
23.439285 97.156 -163.5177
23.609137 97.153 -163.7224
23.780218 97.158 -163.9215
23.952539 97.174 -164.1409
24.126110 97.197 -164.4053
24.300938 97.225 -164.7327
24.477032 97.252 -165.1298
24.654402 97.273 -165.5893
24.833057 97.284 -166.0903
25.013008 97.283 -166.6008
25.194263 97.267 -167.0830
25.376831 97.241 -167.5000
25.560722 97.209 -167.8242
25.745945 97.178 -168.0441
25.932510 97.156 -168.1695
26.120428 97.149 -168.2331
26.309708 97.161 -168.2846
26.500359 97.191 -168.3811
26.692390 97.234 -168.5732
26.885815 97.281 -168.8929
27.080641 97.323 -169.3447
27.276878 97.349 -169.9044
27.474539 97.353 -170.5223
27.673630 97.332 -171.1325
27.874165 97.288 -171.6651
28.076153 97.229 -172.0599
28.279604 97.166 -172.2821
28.484529 97.114 -172.3332
28.690941 97.086 -172.2569
28.898848 97.089 -172.1320
29.108261 97.125 -172.0553
29.319191 97.185 -172.1155
29.531651 97.258 -172.3708
29.745649 97.326 -172.8353
29.961199 97.376 -173.4781
30.178310 97.395 -174.2312
30.396996 97.379 -175.0046
30.617264 97.329 -175.7030
30.839128 97.255 -176.2435
31.062601 97.168 -176.5718
31.287693 97.087 -176.6759
31.514416 97.027 -176.5914
31.742783 96.998 -176.3958
31.972803 97.006 -176.1908
32.204491 97.047 -176.0764
32.437859 97.110 -176.1280
32.672916 97.181 -176.3820
32.909679 97.247 -176.8350
33.148155 97.297 -177.4505
33.388359 97.323 -178.1711
33.630306 97.322 -178.9301
33.874004 97.293 -179.6607
34.119469 97.242 179.6966
34.366711 97.174 179.1885
34.615746 97.097 178.8449
34.866585 97.022 178.6748
35.119244 96.957 178.6636
35.373734 96.912 178.7731
35.630066 96.892 178.9455
35.888256 96.899 179.1114
36.148315 96.930 179.2025
36.410259 96.980 179.1644
36.674103 97.038 178.9660
36.939857 97.095 178.6036
37.207539 97.142 178.0984
37.477161 97.173 177.4897
37.748737 97.185 176.8259
38.022282 97.176 176.1556
38.297806 97.149 175.5213
38.575329 97.108 174.9543
38.854862 97.057 174.4742
39.136421 96.999 174.0895
39.420021 96.940 173.8013
39.705673 96.882 173.6045
39.993397 96.829 173.4902
40.283207 96.783 173.4450
40.575115 96.749 173.4502
40.869141 96.728 173.4818
41.165295 96.721 173.5119
41.463596 96.728 173.5121
41.764057 96.745 173.4584
42.066696 96.769 173.3346
42.371529 96.796 173.1348
42.678570 96.822 172.8630
42.987835 96.842 172.5302
43.299343 96.856 172.1511
43.613110 96.863 171.7413
43.929150 96.861 171.3145
44.247478 96.853 170.8821
44.568115 96.840 170.4529
44.891075 96.822 170.0335
45.216373 96.801 169.6287
45.544029 96.777 169.2416
45.874062 96.753 168.8741
46.206486 96.727 168.5274
46.541317 96.700 168.2023
46.878574 96.672 167.8997
47.218277 96.644 167.6205
47.560440 96.616 167.3643
47.905083 96.589 167.1287
48.252224 96.564 166.9090
48.601879 96.542 166.6982
48.954067 96.523 166.4886
49.308807 96.507 166.2740
49.666119 96.493 166.0507
50.026020 96.480 165.8181
50.388531 96.467 165.5779
50.753666 96.453 165.3330
51.121449 96.440 165.0856
51.491894 96.426 164.8364
51.865025 96.411 164.5845
52.240860 96.396 164.3284
52.619419 96.380 164.0670
53.000721 96.362 163.8011
53.384785 96.343 163.5330
53.771633 96.321 163.2662
54.161285 96.298 163.0031
54.553761 96.274 162.7444
54.949081 96.249 162.4886
55.347263 96.223 162.2332
55.748333 96.196 161.9768
56.152309 96.169 161.7195
56.559212 96.142 161.4625
56.969063 96.115 161.2065
57.381886 96.088 160.9501
57.797699 96.062 160.6900
58.216526 96.036 160.4227
58.638386 96.010 160.1463
59.063305 95.984 159.8613
59.491302 95.957 159.5694
59.922401 95.931 159.2729
60.356625 95.907 158.9744
60.793995 95.883 158.6773
61.234531 95.861 158.3865
61.678261 95.840 158.1080
62.125206 95.818 157.8477
62.575390 95.795 157.6088
63.028835 95.769 157.3905
63.485569 95.741 157.1872
63.945610 95.711 156.9890
64.408989 95.679 156.7851
64.875725 95.647 156.5678
65.345840 95.613 156.3357
65.819366 95.579 156.0933
66.296318 95.544 155.8475
66.776726 95.507 155.6052
67.260620 95.466 155.3719
67.748016 95.423 155.1519
68.238945 95.378 154.9452
68.733429 95.336 154.7428
69.231499 95.300 154.5273
69.733177 95.272 154.2810
70.238495 95.249 153.9985
70.747475 95.228 153.6919
71.260139 95.207 153.3835
71.776520 95.184 153.0927
72.296638 95.159 152.8274
72.820526 95.132 152.5850
73.348213 95.101 152.3588
73.879723 95.069 152.1429
74.415085 95.035 151.9326
74.954330 95.001 151.7237
75.497482 94.966 151.5127
76.044571 94.930 151.2985
76.595619 94.894 151.0815
77.150665 94.859 150.8629
77.709732 94.822 150.6432
78.272850 94.785 150.4235
78.840050 94.748 150.2060
79.411354 94.709 149.9937
79.986801 94.671 149.7889
80.566422 94.631 149.5914
81.150238 94.592 149.3993
81.738289 94.553 149.2104
82.330597 94.514 149.0228
82.927200 94.476 148.8340
83.528122 94.438 148.6422
84.133400 94.400 148.4469
84.743065 94.362 148.2502
85.357147 94.323 148.0542
85.975677 94.282 147.8594
86.598694 94.241 147.6659
87.226227 94.198 147.4755
87.858307 94.155 147.2916
88.494965 94.111 147.1153
89.136238 94.067 146.9423
89.782158 94.023 146.7654
90.432755 93.979 146.5833
91.088066 93.935 146.4039
91.748131 93.890 146.2391
92.412979 93.847 146.0937
93.082642 93.804 145.9615
93.757156 93.762 145.8311
94.436562 93.720 145.6952
95.120888 93.678 145.5563
95.810173 93.637 145.4225
96.504456 93.596 145.2971
97.203766 93.558 145.1732
97.908142 93.520 145.0394
98.617622 93.482 144.8878
99.332245 93.442 144.7187
100.052048 93.398 144.5443
100.777069 93.351 144.3865
101.507339 93.304 144.2607
102.242905 93.261 144.1549
102.983795 93.222 144.0355
103.730057 93.183 143.8796
104.481728 93.140 143.6967
105.238846 93.088 143.5205
106.001450 93.030 143.3878
106.769577 92.970 143.3197
107.543274 92.913 143.3068
108.322578 92.865 143.3127
109.107529 92.824 143.2977
109.898170 92.786 143.2389
110.694534 92.748 143.1325
111.496674 92.704 142.9874
112.304626 92.653 142.8217
113.118431 92.593 142.6608
113.938133 92.527 142.5323
114.763779 92.457 142.4568
115.595406 92.388 142.4424
116.433060 92.324 142.4872
117.276779 92.266 142.5820
118.126617 92.215 142.7059
118.982613 92.171 142.8214
119.844810 92.133 142.8842
120.713257 92.099 142.8710
121.587997 92.065 142.7942
122.469070 92.029 142.6836
123.356529 91.988 142.5613
124.250420 91.943 142.4360
125.150787 91.895 142.3114
126.057678 91.845 142.1940
126.971146 91.795 142.0919
127.891228 91.745 142.0136
128.817978 91.695 141.9671
129.751450 91.645 141.9568
130.691681 91.592 141.9827
131.638733 91.537 142.0379
132.592636 91.482 142.1117
133.553452 91.426 142.1972
134.521240 91.372 142.2916
135.496033 91.318 142.3949
136.477890 91.265 142.5023
137.466858 91.215 142.5950
138.462997 91.170 142.6477
139.466354 91.134 142.6454
140.476990 91.107 142.5960
141.494949 91.083 142.5235
142.520279 91.056 142.4473
143.553040 91.023 142.3790
144.593277 90.983 142.3331
145.641052 90.940 142.3224
146.696426 90.895 142.3519
147.759445 90.848 142.4188
148.830170 90.800 142.5123
149.908661 90.749 142.6181
150.994965 90.695 142.7226
152.089142 90.638 142.8098
153.191238 90.580 142.8661
154.301331 90.524 142.8927
155.419464 90.471 142.8976
156.545700 90.422 142.8903
157.680099 90.376 142.8839
158.822708 90.331 142.8835
159.973602 90.287 142.8860
161.132843 90.245 142.8923
162.300476 90.204 142.9097
163.476578 90.167 142.9568
164.661194 90.134 143.0615
165.854401 90.102 143.2350
167.056244 90.070 143.4609
168.266800 90.032 143.7071
169.486130 89.988 143.9341
170.714294 89.939 144.1133
171.951355 89.887 144.2448
173.197388 89.836 144.3428
174.452454 89.791 144.4224
175.716614 89.752 144.5140
176.989929 89.719 144.6652
178.272476 89.689 144.9039
179.564316 89.658 145.2113
180.865509 89.625 145.5396
182.176132 89.594 145.8485
183.496262 89.568 146.1208
184.825958 89.550 146.3505
186.165283 89.541 146.5348
187.514313 89.539 146.6828
188.873123 89.541 146.8089
190.241776 89.543 146.9125
191.620346 89.544 146.9871
193.008911 89.541 147.0415
194.407532 89.533 147.0870
195.816284 89.521 147.1191
197.235245 89.507 147.1396
198.664490 89.491 147.1697
200.104095 89.474 147.2240
201.554138 89.457 147.2983
203.014679 89.441 147.3854
204.485809 89.425 147.4805
205.967590 89.409 147.5757
207.460114 89.393 147.6592
208.963455 89.377 147.7229
210.477692 89.359 147.7722
212.002899 89.339 147.8186
213.539154 89.317 147.8720
215.086548 89.295 147.9379
216.645157 89.273 148.0136
218.215057 89.253 148.0920
219.796341 89.235 148.1710
221.389069 89.218 148.2540
222.993347 89.203 148.3442
224.609253 89.188 148.4395
226.236862 89.174 148.5321
227.876266 89.159 148.6146
229.527557 89.143 148.6846
231.190811 89.127 148.7452
232.866119 89.109 148.8046
234.553558 89.091 148.8711
236.253235 89.073 148.9490
237.965225 89.056 149.0347
239.689621 89.040 149.1200
241.426514 89.024 149.2005
243.175995 89.007 149.2805
244.938141 88.991 149.3675
246.713058 88.975 149.4639
248.500839 88.962 149.5644
250.301575 88.950 149.6596
252.115356 88.940 149.7418
253.942291 88.932 149.8080
255.782455 88.924 149.8608
257.635956 88.917 149.9051
259.502899 88.912 149.9460
261.383362 88.909 149.9890
263.277466 88.909 150.0400
265.185272 88.911 150.1036
267.106903 88.913 150.1813
269.042480 88.914 150.2710
270.992065 88.913 150.3680
272.955780 88.909 150.4667
274.933716 88.900 150.5594
276.925995 88.889 150.6368
278.932709 88.876 150.6913
280.953979 88.863 150.7213
282.989899 88.855 150.7320
285.040558 88.850 150.7339
287.106079 88.848 150.7405
289.186554 88.848 150.7601
291.282104 88.847 150.7908
293.392853 88.846 150.8239
295.518890 88.844 150.8517
297.660339 88.841 150.8722
299.817322 88.839 150.8889
301.989929 88.836 150.9056
304.178284 88.833 150.9227
306.382477 88.828 150.9380
308.602661 88.823 150.9496
310.838928 88.818 150.9566
313.091400 88.812 150.9587
315.360199 88.807 150.9562
317.645416 88.802 150.9505
319.947205 88.797 150.9453
322.265686 88.792 150.9439
324.600952 88.786 150.9460
326.953156 88.780 150.9492
329.322388 88.773 150.9532
331.708801 88.766 150.9598
334.112488 88.760 150.9726
336.533600 88.755 150.9946
338.972260 88.751 151.0245
341.428589 88.747 151.0591
343.902710 88.744 151.0961
346.394775 88.741 151.1339
348.904907 88.739 151.1703
351.433228 88.737 151.2055
353.979858 88.736 151.2415
356.544952 88.736 151.2822
359.128632 88.738 151.3306
361.731018 88.740 151.3885
364.352264 88.746 151.4561
366.992523 88.755 151.5308
369.651917 88.767 151.6075
372.330566 88.784 151.6788
375.028625 88.803 151.7356
377.746246 88.825 151.7677
380.483551 88.849 151.7661
383.240692 88.875 151.7241
386.017822 88.902 151.6389
388.815063 88.927 151.5137
391.632568 88.949 151.3574
394.470490 88.967 151.1809
397.328979 88.981 150.9938
400.208191 88.990 150.8007
403.108276 88.995 150.6023
406.029358 88.996 150.3992
408.971619 88.995 150.1974
411.935181 88.991 150.0060
414.920227 88.987 149.8324
417.926910 88.982 149.6778
420.955383 88.978 149.5366
424.005798 88.975 149.4015
427.078308 88.972 149.2700
430.173096 88.969 149.1466
433.290314 88.967 149.0362
436.430115 88.964 148.9387
439.592682 88.962 148.8498
442.778137 88.960 148.7631
445.986694 88.959 148.6741
449.218506 88.959 148.5815
452.473724 88.958 148.4865
455.752533 88.958 148.3901
459.055115 88.957 148.2918
462.381622 88.955 148.1897
465.732239 88.952 148.0829
469.107117 88.949 147.9719
472.506470 88.947 147.8576
475.930450 88.945 147.7411
479.379242 88.943 147.6230
482.853027 88.941 147.5044
486.351990 88.940 147.3864
489.876282 88.939 147.2698
493.426117 88.938 147.1546
497.001678 88.936 147.0402
500.603149 88.935 146.9259
504.230713 88.933 146.8112
507.884583 88.932 146.6956
511.564911 88.931 146.5786
515.271912 88.930 146.4601
519.005798 88.929 146.3402
522.766724 88.928 146.2195
526.554932 88.927 146.0978
530.370544 88.926 145.9749
534.213806 88.925 145.8508
538.084961 88.925 145.7258
541.984131 88.924 145.5999
545.911560 88.923 145.4736
549.867432 88.922 145.3470
553.851990 88.921 145.2198
557.865417 88.920 145.0920
561.907959 88.920 144.9636
565.979797 88.919 144.8351
570.081116 88.919 144.7065
574.212158 88.918 144.5780
578.373108 88.918 144.4496
582.564209 88.917 144.3214
586.785706 88.917 144.1935
591.037781 88.917 144.0660
595.320679 88.917 143.9388
599.634644 88.917 143.8120
603.979858 88.917 143.6854
608.356567 88.918 143.5586
612.764954 88.918 143.4315
617.205322 88.919 143.3046
621.677856 88.921 143.1786
626.182800 88.922 143.0541
630.720398 88.924 142.9312
635.290833 88.926 142.8090
639.894409 88.929 142.6864
644.531372 88.932 142.5629
649.201904 88.936 142.4379
653.906311 88.940 142.3116
658.644775 88.944 142.1841
663.417603 88.949 142.0556
668.224976 88.954 141.9264
673.067200 88.959 141.7967
677.944519 88.966 141.6663
682.857178 88.972 141.5350
687.805420 88.979 141.4021
692.789551 88.987 141.2672
697.809814 88.994 141.1302
702.866455 89.002 140.9922
707.959717 89.010 140.8539
713.089905 89.018 140.7153
718.257263 89.027 140.5762
723.462036 89.036 140.4364
728.704529 89.045 140.2956
733.985046 89.055 140.1540
739.303833 89.065 140.0117
744.661133 89.076 139.8690
750.057251 89.088 139.7264
755.492493 89.100 139.5848
760.967102 89.113 139.4444
766.481384 89.127 139.3048
772.035645 89.141 139.1654
777.630127 89.156 139.0252
783.265137 89.172 138.8835
788.940979 89.189 138.7400
794.657959 89.206 138.5948
800.416382 89.225 138.4477
806.216553 89.244 138.2991
812.058716 89.264 138.1490
817.943237 89.285 137.9977
823.870361 89.307 137.8450
829.840454 89.329 137.6906
835.853821 89.353 137.5336
841.910767 89.378 137.3734
848.011597 89.404 137.2091
854.156616 89.431 137.0410
860.346191 89.459 136.8691
866.580627 89.489 136.6938
872.860229 89.520 136.5144
879.185364 89.552 136.3304
885.556274 89.584 136.1416
891.973389 89.618 135.9477
898.437012 89.653 135.7484
904.947449 89.690 135.5431
911.505066 89.727 135.3308
918.110229 89.765 135.1111
924.763245 89.805 134.8836
931.464478 89.846 134.6482
938.214233 89.888 134.4047
945.012939 89.932 134.1523
951.860901 89.977 133.8907
958.758484 90.023 133.6194
965.706055 90.070 133.3380
972.703979 90.118 133.0462
979.752563 90.167 132.7438
986.852234 90.217 132.4303
994.003357 90.268 132.1051
1001.206299 90.319 131.7675
1008.461426 90.372 131.4171
1015.769165 90.425 131.0536
1023.129822 90.479 130.6766
1030.543823 90.534 130.2863
1038.011597 90.589 129.8824
1045.533447 90.644 129.4651
1053.109863 90.699 129.0343
1060.741089 90.755 128.5895
1068.427612 90.811 128.1302
1076.169922 90.867 127.6559
1083.968262 90.923 127.1664
1091.823120 90.980 126.6618
1099.734863 91.036 126.1423
1107.703979 91.092 125.6082
1115.730835 91.147 125.0599
1123.815918 91.202 124.4979
1131.959595 91.257 123.9222
1140.162231 91.311 123.3331
1148.424316 91.364 122.7308
1156.746216 91.416 122.1157
1165.128418 91.468 121.4884
1173.571411 91.519 120.8494
1182.075562 91.569 120.1990
1190.641357 91.619 119.5376
1199.269287 91.667 118.8651
1207.959717 91.714 118.1819
1216.713135 91.761 117.4884
1225.529907 91.806 116.7849
1234.410645 91.851 116.0723
1243.355713 91.894 115.3511
1252.365601 91.936 114.6219
1261.440796 91.978 113.8849
1270.581665 92.018 113.1404
1279.788818 92.057 112.3887
1289.062744 92.095 111.6302
1298.403809 92.131 110.8654
1307.812622 92.167 110.0947
1317.289551 92.202 109.3188
1326.835205 92.236 108.5379
1336.449951 92.269 107.7526
1346.134399 92.301 106.9631
1355.889038 92.332 106.1696
1365.714355 92.363 105.3720
1375.610840 92.392 104.5705
1385.579102 92.421 103.7650
1395.619629 92.449 102.9558
1405.732910 92.476 102.1431
1415.919434 92.502 101.3268
1426.179810 92.528 100.5073
1436.514526 92.554 99.6848
1446.924072 92.578 98.8596
1457.409058 92.603 98.0321
1467.970093 92.627 97.2024
1478.607666 92.651 96.3704
1489.322266 92.674 95.5361
1500.114502 92.697 94.6991
1510.984985 92.720 93.8592
1521.934204 92.742 93.0163
1532.962769 92.765 92.1706
1544.071289 92.787 91.3221
1555.260254 92.809 90.4708
1566.530273 92.831 89.6168
1577.881958 92.852 88.7598
1589.315918 92.874 87.8994
1600.832764 92.896 87.0356
1612.433105 92.918 86.1683
1624.117432 92.939 85.2973
1635.886475 92.961 84.4224
1647.740723 92.983 83.5436
1659.680908 93.005 82.6608
1671.707642 93.028 81.7738
1683.821533 93.050 80.8828
1696.023193 93.073 79.9876
1708.313232 93.096 79.0884
1720.692383 93.119 78.1848
1733.161255 93.142 77.2765
1745.720459 93.166 76.3631
1758.370728 93.190 75.4444
1771.112549 93.214 74.5202
1783.946777 93.239 73.5905
1796.874023 93.264 72.6548
1809.894897 93.290 71.7133
1823.010132 93.316 70.7657
1836.220459 93.342 69.8118
1849.526489 93.368 68.8515
1862.928955 93.396 67.8845
1876.428467 93.423 66.9107
1890.025879 93.451 65.9296
1903.721802 93.480 64.9412
1917.516968 93.508 63.9451
1931.412109 93.538 62.9411
1945.407959 93.568 61.9291
1959.505127 93.598 60.9088
1973.704468 93.629 59.8799
1988.006714 93.660 58.8424
2002.412598 93.692 57.7963
2016.922852 93.724 56.7412
2031.538330 93.757 55.6769
2046.259644 93.790 54.6031
2061.087646 93.824 53.5194
2076.023193 93.859 52.4253
2091.066895 93.894 51.3205
2106.219727 93.929 50.2046
2121.482178 93.965 49.0773
2136.855225 94.001 47.9384
2152.339844 94.038 46.7878
2167.936523 94.076 45.6253
2183.646240 94.114 44.4508
2199.469727 94.152 43.2640
2215.407959 94.191 42.0645
2231.461670 94.230 40.8521
2247.631836 94.269 39.6263
2263.919189 94.309 38.3867
2280.324463 94.350 37.1329
2296.848633 94.390 35.8644
2313.492432 94.431 34.5807
2330.256836 94.473 33.2814
2347.142822 94.514 31.9660
2364.151123 94.556 30.6342
2381.282715 94.598 29.2855
2398.538574 94.640 27.9196
2415.919434 94.683 26.5365
2433.426270 94.725 25.1359
2451.059814 94.767 23.7177
2468.821289 94.809 22.2817
2486.711426 94.851 20.8276
2504.731201 94.892 19.3553
2522.881592 94.934 17.8645
2541.163330 94.974 16.3551
2559.577637 95.015 14.8269
2578.125488 95.055 13.2800
2596.807617 95.094 11.7142
2615.625244 95.133 10.1298
2634.579102 95.172 8.5263
2653.670410 95.210 6.9037
2672.899902 95.247 5.2620
2692.268799 95.283 3.6009
2711.778076 95.318 1.9204
2731.428711 95.353 0.2204
2751.221680 95.386 -1.4993
2771.158203 95.419 -3.2389
2791.239258 95.450 -4.9983
2811.465820 95.480 -6.7773
2831.838867 95.509 -8.5757
2852.359619 95.536 -10.3929
2873.029053 95.562 -12.2285
2893.848145 95.587 -14.0820
2914.818115 95.609 -15.9529
2935.940186 95.631 -17.8405
2957.215332 95.650 -19.7444
2978.644531 95.669 -21.6641
3000.229004 95.686 -23.5988
3021.969971 95.701 -25.5481
3043.868408 95.716 -27.5117
3065.925537 95.729 -29.4891
3088.142578 95.742 -31.4803
3110.520508 95.754 -33.4857
3133.060547 95.766 -35.5060
3155.763916 95.779 -37.5426
3178.631836 95.791 -39.5977
3201.665527 95.805 -41.6744
3224.866211 95.819 -43.7771
3248.234863 95.835 -45.9107
3271.772949 95.851 -48.0811
3295.481445 95.868 -50.2936
3319.361816 95.884 -52.5537
3343.415283 95.899 -54.8651
3367.643066 95.911 -57.2300
3392.046387 95.919 -59.6484
3416.626465 95.923 -62.1187
3441.384766 95.920 -64.6373
3466.322510 95.911 -67.1993
3491.440918 95.894 -69.7997
3516.741455 95.869 -72.4333
3542.225098 95.836 -75.0956
3567.893555 95.795 -77.7829
3593.748047 95.745 -80.4915
3619.789795 95.685 -83.2180
3646.020264 95.616 -85.9581
3672.440918 95.536 -88.7071
3699.052979 95.445 -91.4585
3725.857910 95.343 -94.2043
3752.856934 95.228 -96.9343
3780.051758 95.101 -99.6361
3807.443604 94.963 -102.2950
3835.033936 94.813 -104.8955
3862.824219 94.653 -107.4221
3890.815918 94.485 -109.8608
3919.010254 94.311 -112.2006
3947.408936 94.135 -114.4343
3976.013428 93.960 -116.5601
4004.825195 93.789 -118.5820
4033.845703 93.626 -120.5093
4063.076660 93.472 -122.3562
4092.519287 93.331 -124.1400
4122.175293 93.202 -125.8795
4152.046387 93.087 -127.5930
4182.133789 92.986 -129.2969
4212.439453 92.896 -131.0045
4242.964355 92.818 -132.7256
4273.710449 92.750 -134.4664
4304.679688 92.692 -136.2305
4335.873047 92.642 -138.0193
4367.292480 92.600 -139.8337
4398.939453 92.565 -141.6745
4430.815918 92.539 -143.5437
4462.923340 92.520 -145.4441
4495.263672 92.509 -147.3799
4527.838379 92.506 -149.3555
4560.648926 92.510 -151.3755
4593.697266 92.521 -153.4445
4626.984863 92.539 -155.5664
4660.513672 92.562 -157.7444
4694.285645 92.591 -159.9812
4728.302246 92.625 -162.2788
4762.565430 92.662 -164.6390
4797.077148 92.704 -167.0640
4831.838867 92.749 -169.5554
4866.852539 92.797 -172.1161
4902.119629 92.846 -174.7488
4937.642578 92.897 -177.4556
4973.422852 92.949 179.7622
5009.462402 92.999 176.9047
5045.763184 93.048 173.9733
5082.326660 93.093 170.9716
5119.155273 93.134 167.9042
5156.250977 93.171 164.7775
5193.615234 93.202 161.5983
5231.250488 93.227 158.3739
5269.158203 93.246 155.1112
5307.340820 93.260 151.8165
5345.799805 93.268 148.4957
5384.537598 93.271 145.1535
5423.556152 93.269 141.7939
5462.857422 93.263 138.4200
5502.443359 93.253 135.0339
5542.316406 93.239 131.6371
5582.478516 93.223 128.2306
5622.931641 93.204 124.8148
5663.677734 93.182 121.3903
5704.719238 93.157 117.9578
5746.058105 93.131 114.5180
5787.696289 93.102 111.0721
5829.636230 93.071 107.6215
5871.880371 93.038 104.1678
5914.430664 93.003 100.7128
5957.289062 92.966 97.2585
6000.458008 92.928 93.8069
6043.939941 92.888 90.3597
6087.736816 92.848 86.9184
6131.851074 92.809 83.4839
6176.285156 92.769 80.0569
6221.041016 92.731 76.6371
6266.121094 92.694 73.2236
6311.527832 92.659 69.8151
6357.263672 92.627 66.4096
6403.331055 92.599 63.0049
6449.732422 92.573 59.5989
6496.469727 92.552 56.1891
6543.545898 92.535 52.7729
6590.962891 92.523 49.3472
6638.723633 92.516 45.9083
6686.830566 92.515 42.4520
6735.286133 92.519 38.9738
6784.092773 92.530 35.4685
6833.252930 92.547 31.9312
6882.769531 92.571 28.3564
6932.645020 92.601 24.7387
6982.881836 92.637 21.0724
7033.482910 92.680 17.3515
7084.450195 92.730 13.5692
7135.787109 92.787 9.7177
7187.496094 92.850 5.7879
7239.579590 92.920 1.7698
7292.040527 92.995 -2.3478
7344.881836 93.074 -6.5762
7398.105957 93.156 -10.9264
7451.715820 93.240 -15.4078
7505.713867 93.323 -20.0273
7560.103516 93.402 -24.7896
7614.887207 93.475 -29.6960
7670.067871 93.540 -34.7457
7725.648438 93.595 -39.9360
7781.631836 93.638 -45.2634
7838.020508 93.666 -50.7236
7894.817871 93.678 -56.3113
7952.026855 93.670 -62.0185
8009.650391 93.642 -67.8346
8067.691406 93.589 -73.7451
8126.153320 93.512 -79.7315
8185.038574 93.407 -85.7726
8244.350586 93.275 -91.8443
8304.092773 93.114 -97.9205
8364.267578 92.926 -103.9738
8424.878906 92.711 -109.9775
8485.928711 92.473 -115.9066
8547.420898 92.213 -121.7390
8609.359375 91.936 -127.4570
8671.746094 91.645 -133.0479
8734.584961 91.346 -138.5037
8797.878906 91.041 -143.8215
8861.631836 90.735 -149.0037
8925.846680 90.433 -154.0554
8990.527344 90.137 -158.9855
9055.676758 89.851 -163.8049
9121.297852 89.577 -168.5256
9187.394531 89.317 -173.1611
9253.969727 89.073 -177.7244
9321.027344 88.847 177.7714
9388.571289 88.640 173.3135
9456.604492 88.452 168.8896
9525.130859 88.284 164.4880
9594.154297 88.138 160.0961
9663.677734 88.014 155.7017
9733.705078 87.912 151.2921
9804.239258 87.833 146.8557
9875.285156 87.778 142.3799
9946.845703 87.744 137.8524
10018.924805 87.733 133.2607
10091.526367 87.743 128.5924
10164.653320 87.772 123.8354
10238.310547 87.821 118.9778
10312.501953 87.887 114.0078
10387.230469 87.968 108.9136
10462.500977 88.063 103.6840
10538.316406 88.168 98.3076
10614.681641 88.280 92.7738
10691.599609 88.397 87.0732
10769.075195 88.514 81.1982
10847.112305 88.628 75.1440
10925.714844 88.731 68.9102
11004.886719 88.819 62.5015
11084.632812 88.886 55.9292
11164.957031 88.925 49.2117
11245.863281 88.932 42.3752
11327.355469 88.902 35.4556
11409.438477 88.831 28.4963
11492.116211 88.716 21.5487
11575.392578 88.557 14.6683
11659.272461 88.355 7.9124
11743.760742 88.113 1.3362
11828.861328 87.836 -5.0111
11914.578125 87.530 -11.0887
12000.916016 87.205 -16.8689
12087.879883 86.867 -22.3356
12175.473633 86.526 -27.4863
12263.702148 86.190 -32.3312
12352.570312 85.865 -36.8901
12442.082031 85.558 -41.1913
12532.242188 85.273 -45.2673
12623.055664 85.014 -49.1532
12714.527344 84.785 -52.8838
12806.662109 84.586 -56.4929
12899.464844 84.420 -60.0125
12992.939453 84.289 -63.4718
13087.091797 84.193 -66.8990
13181.925781 84.133 -70.3210
13277.447266 84.113 -73.7648
13373.661133 84.133 -77.2582
13470.572266 84.197 -80.8311
13568.185547 84.308 -84.5175
13666.505859 84.470 -88.3579
13765.539062 84.686 -92.4027
13865.290039 84.961 -96.7144
13965.763672 85.297 -101.3691
14066.965820 85.696 -106.4581
14168.900391 86.155 -112.0865
14271.574219 86.670 -118.3699
14374.992188 87.228 -125.4264
14479.159180 87.811 -133.3639
14584.081055 88.392 -142.2639
14689.763672 88.942 -152.1659
14796.211914 89.425 -163.0531
14903.431641 89.808 -174.8433
15011.427734 90.057 172.6174
15120.207031 90.147 159.5482
15229.774414 90.063 146.2209
15340.135742 89.803 132.9301
15451.296875 89.376 119.9591
15563.263672 88.804 107.5499
15676.041016 88.116 95.8854
15789.635742 87.344 85.0831
15904.053711 86.522 75.1986
16019.300781 85.684 66.2333
16135.382812 84.858 58.1451
16252.306641 84.069 50.8615
16370.077148 83.336 44.2915
16488.701172 82.672 38.3375
16608.185547 82.084 32.9052
16728.535156 81.577 27.9084
16849.757812 81.151 23.2716
16971.857422 80.806 18.9268
17094.841797 80.541 14.8087
17218.718750 80.354 10.8501
17343.492188 80.243 6.9780
17469.169922 80.204 3.1121
17595.757812 80.231 -0.8319
17723.263672 80.317 -4.9354
17851.693359 80.453 -9.2666
17981.054688 80.628 -13.8745
18111.353516 80.833 -18.7865
18242.595703 81.059 -24.0142
18374.789062 81.300 -29.5653
18507.939453 81.551 -35.4573
18642.054688 81.809 -41.7299
18777.142578 82.069 -48.4486
18913.208984 82.320 -55.6973
19050.261719 82.552 -63.5619
19188.308594 82.748 -72.1069
19327.355469 82.892 -81.3541
19467.410156 82.969 -91.2644
19608.478516 82.979 -101.7277
19750.570312 82.936 -112.5645
19893.691406 82.872 -123.5444
20037.849609 0.000 -134.4346
