Freq[Hz]     dBSPL  Phase[Deg]
5.00000     73.394   -27.712
5.07273     73.376   -27.712
5.14651     73.353   -27.713
5.22137     73.322   -27.714
5.29732     73.288   -27.718
5.37437     73.250   -27.723
5.45254     73.212   -27.729
5.53185     73.174   -27.734
5.61231     73.136   -27.741
5.69394     73.098   -27.747
5.77676     73.060   -27.753
5.86079     73.022   -27.760
5.94604     72.984   -27.767
6.03252     72.946   -27.773
6.12027     72.908   -27.780
6.20929     72.870   -27.788
6.29961     72.832   -27.795
6.39124     72.794   -27.802
6.48420     72.756   -27.810
6.57851     72.718   -27.818
6.67420     72.680   -27.825
6.77128     72.642   -27.833
6.86977     72.604   -27.842
6.96969     72.566   -27.850
7.07107     72.528   -27.858
7.17392     72.490   -27.867
7.27827     72.452   -27.875
7.38413     72.414   -27.884
7.49154     72.376   -27.893
7.60050     72.338   -27.902
7.71105     72.300   -27.912
7.82321     72.262   -27.921
7.93701     72.224   -27.931
8.05245     72.186   -27.941
8.16958     72.148   -27.951
8.28841     72.110   -27.961
8.40896     72.072   -27.971
8.53128     72.034   -27.982
8.65537     71.996   -27.992
8.78126     71.958   -28.003
8.90899     71.920   -28.014
9.03857     71.882   -28.025
9.17004     71.844   -28.037
9.30342     71.806   -28.048
9.43874     71.768   -28.060
9.57603     71.730   -28.072
9.71532     71.691   -28.084
9.85663     71.653   -28.096
10.0000     71.615   -28.109
10.1455     71.577   -28.121
10.2930     71.539   -28.134
10.4427     71.501   -28.148
10.5946     71.463   -28.161
10.7487     71.425   -28.175
10.9051     71.387   -28.188
11.0637     71.349   -28.202
11.2246     71.311   -28.217
11.3879     71.273   -28.231
11.5535     71.235   -28.246
11.7216     71.197   -28.261
11.8921     71.159   -28.276
12.0650     71.121   -28.292
12.2405     71.083   -28.308
12.4186     71.045   -28.324
12.5992     71.007   -28.340
12.7825     70.969   -28.356
12.9684     70.931   -28.373
13.1570     70.893   -28.390
13.3484     70.855   -28.408
13.5426     70.817   -28.426
13.7395     70.779   -28.444
13.9394     70.741   -28.462
14.1421     70.703   -28.481
14.3478     70.665   -28.499
14.5565     70.627   -28.519
14.7683     70.589   -28.538
14.9831     70.551   -28.558
15.2010     70.513   -28.579
15.4221     70.475   -28.599
15.6464     70.437   -28.621
15.8740     70.399   -28.642
16.1049     70.361   -28.664
16.3392     70.323   -28.686
16.5768     70.285   -28.709
16.8179     70.247   -28.732
17.0626     70.209   -28.755
17.3107     70.171   -28.779
17.5625     70.133   -28.804
17.8180     70.095   -28.828
18.0771     70.057   -28.854
18.3401     70.019   -28.879
18.6068     69.981   -28.905
18.8775     69.943   -28.932
19.1521     69.905   -28.959
19.4306     69.867   -28.987
19.7133     69.829   -29.015
20.0000     69.791   -29.044
20.2909     69.753   -29.073
20.5860     69.715   -29.103
20.8855     69.677   -29.133
21.1893     69.639   -29.164
21.4975     69.601   -29.195
21.8102     69.563   -29.227
22.1274     69.525   -29.260
22.4492     69.487   -29.293
22.7758     69.449   -29.327
23.1071     69.411   -29.362
23.4432     69.373   -29.397
23.7841     69.335   -29.433
24.1301     69.297   -29.469
24.4811     69.259   -29.507
24.8372     69.221   -29.545
25.1984     69.183   -29.583
25.5649     69.145   -29.623
25.9368     69.107   -29.663
26.3141     69.069   -29.704
26.6968     69.031   -29.745
27.0851     68.993   -29.787
27.4791     68.955   -29.830
27.8788     68.917   -29.873
28.2843     68.879   -29.917
28.6957     68.841   -29.961
29.1131     68.803   -30.005
29.5365     68.765   -30.048
29.9661     68.727   -30.091
30.4020     68.689   -30.133
30.8442     68.651   -30.171
31.2929     68.613   -30.203
31.7480     68.576   -30.226
32.2098     68.541   -30.238
32.6783     68.511   -30.244
33.1536     68.488   -30.268
33.6359     68.470   -30.328
34.1251     68.454   -30.443
34.6215     68.434   -30.612
35.1250     68.405   -30.802
35.6359     68.373   -31.006
36.1543     68.330   -31.200
36.6802     68.286   -31.359
37.2137     68.248   -31.514
37.7550     68.208   -31.685
38.3041     68.166   -31.856
38.8613     68.127   -32.043
39.4265     68.082   -32.246
40.0000     68.032   -32.438
40.5818     67.985   -32.631
41.1721     67.933   -32.828
41.7710     67.881   -33.020
42.3785     67.827   -33.218
42.9949     67.768   -33.415
43.6203     67.707   -33.599
44.2548     67.644   -33.776
44.8985     67.578   -33.935
45.5515     67.514   -34.082
46.2141     67.446   -34.217
46.8863     67.380   -34.341
47.5683     67.313   -34.456
48.2602     67.248   -34.567
48.9621     67.180   -34.676
49.6743     67.113   -34.782
50.3968     67.043   -34.883
51.1299     66.972   -34.972
51.8736     66.899   -35.041
52.6281     66.829   -35.091
53.3936     66.758   -35.122
54.1702     66.696   -35.155
54.9581     66.633   -35.208
55.7575     66.571   -35.275
56.5685     66.509   -35.364
57.3914     66.439   -35.461
58.2261     66.367   -35.544
59.0730     66.293   -35.612
59.9323     66.219   -35.665
60.8040     66.146   -35.712
61.6884     66.073   -35.759
62.5857     66.000   -35.813
63.4960     65.924   -35.874
64.4196     65.846   -35.933
65.3566     65.763   -35.990
66.3073     65.671   -36.012
67.2717     65.584   -35.995
68.2502     65.495   -35.957
69.2429     65.408   -35.894
70.2501     65.326   -35.825
71.2719     65.242   -35.760
72.3086     65.153   -35.673
73.3603     65.067   -35.563
74.4274     64.979   -35.427
75.5099     64.894   -35.259
76.6083     64.816   -35.083
77.7226     64.738   -34.908
78.8531     64.663   -34.732
80.0000     64.585   -34.551
81.1636     64.509   -34.355
82.3442     64.434   -34.146
83.5419     64.360   -33.921
84.7570     64.290   -33.681
85.9899     64.224   -33.441
87.2406     64.157   -33.199
88.5096     64.094   -32.952
89.7970     64.033   -32.705
91.1031     63.974   -32.453
92.4282     63.919   -32.207
93.7726     63.864   -31.972
95.1366     63.811   -31.739
96.5204     63.760   -31.517
97.9243     63.704   -31.291
99.3486     63.656   -31.063
100.794     63.606   -30.847
102.260     63.556   -30.625
103.747     63.513   -30.423
105.256     63.463   -30.235
106.787     63.414   -30.037
108.340     63.367   -29.845
109.916     63.315   -29.647
111.515     63.268   -29.441
113.137     63.219   -29.238
114.783     63.171   -29.019
116.452     63.130   -28.807
118.146     63.087   -28.616
119.865     63.044   -28.426
121.608     63.004   -28.251
123.377     62.958   -28.087
125.171     62.911   -27.902
126.992     62.870   -27.715
128.839     62.828   -27.542
130.713     62.785   -27.373
132.615     62.747   -27.221
134.543     62.702   -27.087
136.500     62.654   -26.939
138.486     62.608   -26.783
140.500     62.560   -26.626
142.544     62.512   -26.453
144.617     62.472   -26.299
146.721     62.426   -26.171
148.855     62.378   -26.049
151.020     62.325   -25.934
153.217     62.265   -25.804
155.445     62.201   -25.638
157.706     62.135   -25.424
160.000     62.074   -25.177
162.327     62.016   -24.910
164.688     61.963   -24.633
167.084     61.913   -24.359
169.514     61.861   -24.077
171.980     61.817   -23.795
174.481     61.769   -23.519
177.019     61.722   -23.224
179.594     61.683   -22.937
182.206     61.639   -22.659
184.856     61.597   -22.366
187.545     61.560   -22.078
190.273     61.523   -21.806
193.041     61.484   -21.533
195.849     61.447   -21.259
198.697     61.412   -20.996
201.587     61.372   -20.733
204.520     61.334   -20.454
207.494     61.299   -20.174
210.512     61.264   -19.904
213.574     61.227   -19.630
216.681     61.193   -19.348
219.833     61.161   -19.073
223.030     61.128   -18.807
226.274     61.092   -18.534
229.565     61.060   -18.255
232.905     61.029   -17.985
236.292     60.997   -17.721
239.729     60.961   -17.449
243.216     60.929   -17.167
246.754     60.897   -16.890
250.343     60.865   -16.617
253.984     60.830   -16.332
257.678     60.798   -16.033
261.426     60.767   -15.735
265.229     60.737   -15.438
269.087     60.706   -15.134
273.001     60.676   -14.822
276.972     60.648   -14.504
281.000     60.623   -14.185
285.088     60.599   -13.868
289.234     60.581   -13.570
293.441     60.558   -13.293
297.709     60.532   -13.011
302.040     60.507   -12.718
306.433     60.481   -12.416
310.890     60.460   -12.108
315.412     60.444   -11.826
320.000     60.422   -11.568
324.655     60.397   -11.310
329.377     60.369   -11.046
334.168     60.339   -10.768
339.028     60.306   -10.465
343.959     60.276   -10.137
348.962     60.248    -9.794
354.038     60.223    -9.443
359.188     60.201    -9.088
364.412     60.185    -8.755
369.713     60.163    -8.443
375.090     60.138    -8.121
380.546     60.113    -7.782
386.081     60.087    -7.424
391.697     60.064    -7.050
397.394     60.046    -6.686
403.175     60.022    -6.323
409.039     59.997    -5.937
414.989     59.972    -5.520
421.025     59.949    -5.068
427.149     59.936    -4.595
433.362     59.930    -4.132
439.665     59.928    -3.691
446.060     59.928    -3.273
452.548     59.928    -2.870
459.131     59.928    -2.479
465.809     59.928    -2.094
472.584     59.928    -1.715
479.458     59.928    -1.339
486.432     59.928    -0.966
493.507     59.928    -0.594
500.686     59.928    -0.222
507.968     59.928     0.149
515.357     59.928     0.523
522.853     59.928     0.898
530.458     59.928     1.276
538.174     59.928     1.659
546.002     59.928     2.047
553.943     59.928     2.443
562.001     59.928     2.849
570.175     59.928     3.271
578.469     59.929     3.715
586.883     59.934     4.181
595.419     59.945     4.664
604.080     59.965     5.136
612.866     59.990     5.572
621.780     60.015     5.972
630.824     60.038     6.345
640.000     60.056     6.712
649.309     60.071     7.099
658.753     60.092     7.499
668.335     60.117     7.881
678.056     60.143     8.237
687.919     60.166     8.567
697.925     60.182     8.885
708.077     60.189     9.231
718.376     60.196     9.628
728.825     60.207    10.068
739.426     60.227    10.524
750.181     60.252    10.965
761.093     60.277    11.391
772.163     60.303    11.808
783.394     60.325    12.230
794.789     60.348    12.670
806.349     60.375    13.113
818.078     60.401    13.560
829.977     60.428    14.015
842.050     60.453    14.483
854.298     60.476    14.990
866.724     60.507    15.529
879.330     60.541    16.094
892.120     60.587    16.667
905.097     60.636    17.225
918.262     60.686    17.787
931.618     60.743    18.357
945.169     60.806    18.918
958.917     60.870    19.478
972.864     60.943    20.036
987.015     61.019    20.583
1001.37     61.102    21.121
1015.94     61.191    21.642
1030.71     61.286    22.133
1045.71     61.386    22.584
1060.92     61.485    23.000
1076.35     61.583    23.404
1092.00     61.685    23.799
1107.89     61.789    24.185
1124.00     61.897    24.566
1140.35     62.014    24.921
1156.94     62.136    25.233
1173.77     62.259    25.496
1190.84     62.378    25.729
1208.16     62.498    25.953
1225.73     62.621    26.166
1243.56     62.746    26.371
1261.65     62.879    26.566
1280.00     63.021    26.718
1298.62     63.167    26.810
1317.51     63.317    26.840
1336.67     63.467    26.810
1356.11     63.622    26.707
1375.84     63.774    26.513
1395.85     63.918    26.246
1416.15     64.054    25.918
1436.75     64.178    25.552
1457.65     64.292    25.177
1478.85     64.404    24.789
1500.36     64.506    24.390
1522.19     64.603    23.986
1544.33     64.689    23.592
1566.79     64.770    23.238
1589.58     64.853    22.919
1612.70     64.941    22.605
1636.16     65.030    22.279
1659.95     65.120    21.931
1684.10     65.205    21.558
1708.60     65.283    21.195
1733.45     65.365    20.842
1758.66     65.443    20.488
1784.24     65.521    20.138
1810.19     65.600    19.782
1836.52     65.673    19.433
1863.24     65.748    19.108
1890.34     65.826    18.797
1917.83     65.908    18.497
1945.73     66.000    18.172
1974.03     66.090    17.821
2002.74     66.184    17.452
2031.87     66.282    17.046
2061.43     66.380    16.596
2091.41     66.476    16.115
2121.83     66.572    15.602
2152.69     66.667    15.042
2184.01     66.753    14.452
2215.77     66.836    13.863
2248.00     66.920    13.258
2280.70     66.997    12.644
2313.87     67.078    12.022
2347.53     67.156    11.375
2381.68     67.232    10.712
2416.32     67.308    10.027
2451.46     67.379     9.326
2487.12     67.450     8.615
2523.30     67.521     7.881
2560.00     67.591     7.114
2597.24     67.659     6.304
2635.01     67.717     5.462
2673.34     67.767     4.612
2712.23     67.812     3.763
2751.68     67.851     2.917
2791.70     67.883     2.091
2832.31     67.916     1.286
2873.50     67.948     0.487
2915.30     67.977    -0.308
2957.70     68.006    -1.095
3000.72     68.035    -1.877
3044.37     68.065    -2.660
3088.65     68.095    -3.446
3133.58     68.127    -4.240
3179.16     68.160    -5.043
3225.40     68.199    -5.876
3272.31     68.238    -6.769
3319.91     68.269    -7.705
3368.20     68.296    -8.673
3417.19     68.315    -9.670
3466.89     68.325   -10.670
3517.32     68.329   -11.656
3568.48     68.329   -12.627
3620.39     68.329   -13.590
3673.05     68.329   -14.555
3726.47     68.329   -15.533
3780.67     68.329   -16.536
3835.67     68.326   -17.573
3891.46     68.319   -18.647
3948.06     68.301   -19.749
4005.49     68.273   -20.848
4063.75     68.240   -21.941
4122.86     68.196   -23.017
4182.82     68.148   -24.052
4243.66     68.104   -25.079
4305.39     68.052   -26.100
4368.01     68.002   -27.114
4431.55     67.949   -28.141
4496.01     67.891   -29.172
4561.40     67.831   -30.211
4627.75     67.762   -31.253
4695.06     67.691   -32.294
4763.35     67.610   -33.330
4832.64     67.525   -34.355
4902.93     67.431   -35.368
4974.24     67.328   -36.342
5046.60     67.224   -37.282
5120.00     67.111   -38.187
5194.47     66.995   -39.030
5270.03     66.882   -39.830
5346.68     66.766   -40.585
5424.45     66.659   -41.311
5503.35     66.553   -42.036
5583.40     66.449   -42.756
5664.61     66.347   -43.480
5747.01     66.244   -44.207
5830.60     66.140   -44.940
5915.41     66.036   -45.685
6001.45     65.930   -46.447
6088.74     65.820   -47.226
6177.30     65.701   -48.008
6267.15     65.575   -48.766
6358.31     65.445   -49.495
6450.80     65.314   -50.199
6544.62     65.182   -50.890
6639.82     65.050   -51.581
6736.40     64.915   -52.281
6834.38     64.775   -52.993
6933.79     64.622   -53.697
7034.64     64.460   -54.366
7136.96     64.286   -54.974
7240.77     64.108   -55.499
7346.09     63.928   -55.943
7452.94     63.754   -56.322
7561.35     63.584   -56.664
7671.33     63.415   -56.972
7782.91     63.250   -57.253
7896.12     63.084   -57.506
8010.97     62.916   -57.703
8127.49     62.759   -57.866
8245.71     62.601   -58.012
8365.65     62.449   -58.132
8487.33     62.304   -58.257
8610.78     62.151   -58.363
8736.03     62.004   -58.430
8863.09     61.860   -58.470
8992.01     61.720   -58.476
9122.80     61.594   -58.483
9255.50     61.472   -58.525
9390.12     61.349   -58.585
9526.70     61.231   -58.671
9665.27     61.104   -58.769
9805.86     60.977   -58.854
9948.49     60.848   -58.927
10093.2     60.720   -58.990
10240.0     60.590   -59.041
10388.9     60.461   -59.072
10540.1     60.333   -59.084
10693.4     60.208   -59.090
10848.9     60.086   -59.103
11006.7     59.960   -59.113
11166.8     59.834   -59.112
11329.2     59.706   -59.091
11494.0     59.579   -59.043
11661.2     59.456   -58.985
11830.8     59.334   -58.925
12002.9     59.211   -58.859
12177.5     59.090   -58.794
12354.6     58.959   -58.700
12534.3     58.831   -58.549
12716.6     58.710   -58.372
12901.6     58.589   -58.173
13089.2     58.473   -57.944
13279.6     58.366   -57.708
13472.8     58.259   -57.468
13668.8     58.159   -57.219
13867.6     58.059   -56.959
14069.3     57.969   -56.694
14273.9     57.882   -56.441
14481.5     57.799   -56.194
14692.2     57.723   -55.970
14905.9     57.643   -55.762
15122.7     57.566   -55.555
15342.7     57.488   -55.350
15565.8     57.410   -55.126
15792.2     57.341   -54.892
16021.9     57.275   -54.663
16255.0     57.216   -54.450
16491.4     57.159   -54.255
16731.3     57.106   -54.077
16974.7     57.056   -53.921
17221.6     57.006   -53.777
17472.1     56.964   -53.652
17726.2     56.923   -53.563
17984.0     56.883   -53.498
18245.6     56.847   -53.465
18511.0     56.812   -53.478
18780.2     56.772   -53.517
19053.4     56.734   -53.570
19330.5     56.701   -53.661
19611.7     56.667   -53.810
19897.0     56.631   -54.017
20186.4     56.589   -54.281
20480.0     56.535   -54.586
20777.9     56.467   -54.896
21080.1     56.388   -55.178
21386.7     56.304   -55.419
21697.8     56.218   -55.624
22013.4     56.132   -55.802
22333.6     56.046   -55.963
22658.4     55.960   -56.110
22988.0     55.874   -56.247
23322.4     55.788   -56.374
23661.6     55.702   -56.494
24005.8     55.616   -56.607
24355.0     55.530   -56.715
24709.2     55.443   -56.818
25068.6     55.357   -56.916
25433.2     55.271   -57.011
25803.2     55.185   -57.102
26178.5     55.099   -57.189
26559.3     55.013   -57.273
26945.6     54.927   -57.355
27337.5     54.841   -57.434
27735.2     54.755   -57.511
28138.6     54.669   -57.586
28547.9     54.583   -57.659
28963.1     54.497   -57.729
29384.4     54.411   -57.798
29811.8     54.325   -57.865
30245.4     54.239   -57.931
30685.3     54.153   -57.995
31131.7     54.067   -58.057
31584.5     53.981   -58.118
32043.9     53.895   -58.178
32510.0     53.809   -58.237
32982.8     53.722   -58.294
33462.6     53.636   -58.350
33949.3     53.550   -58.405
34443.1     53.464   -58.459
34944.1     53.378   -58.513
35452.4     53.292   -58.565
35968.0     53.206   -58.616
36491.2     53.120   -58.667
37022.0     53.034   -58.717
37560.5     52.948   -58.767
38106.8     52.870   -58.814
38661.1     52.800   -58.859
39223.4     52.747   -58.894
39793.9     52.707   -58.922
